Baseline 100%T,,UV_511359d7-df0d-4018-bfee-ff58585b5809,,
Wavelength (nm),Abs,Wavelength (nm),Abs,
800.0097656,0.5005176663,800.0097656,-0.04090062901,
799.4876099,0.4974665046,799.4876099,-0.0396954529,
799.0003052,0.4973629415,799.0003052,-0.03725035489,
798.5128174,0.4980668724,798.5128174,-0.04128819704,
797.9903564,0.4971660674,797.9903564,-0.04146606475,
797.5026245,0.4968630075,797.5026245,-0.03771254048,
797.0149536,0.4966117144,797.0149536,-0.03835309297,
796.4921875,0.4995433986,796.4921875,-0.03560850769,
796.0042114,0.4978219867,796.0042114,-0.0366361998,
795.5161743,0.4963075221,795.5161743,-0.04698062316,
794.993042,0.4977560341,794.993042,-0.04175946116,
794.5048218,0.4908383787,794.5048218,-0.03998197243,
794.0164185,0.4947047234,794.0164185,-0.03946693987,
793.493042,0.4912587106,793.493042,-0.04218347371,
793.0045166,0.4931926429,793.0045166,-0.04204984009,
792.5158691,0.4876882732,792.5158691,-0.04168092087,
791.9922485,0.4902707636,791.9922485,-0.04447024316,
791.503418,0.49577564,791.503418,-0.03989196569,
791.0144653,0.4929171801,791.0144653,-0.04477586225,
790.4905396,0.4878200591,790.4905396,-0.03951019421,
790.0014038,0.486163348,790.0014038,-0.03682668135,
789.512146,0.4931967258,789.512146,-0.04511747882,
788.987854,0.4922114909,788.987854,-0.04131742939,
788.4984131,0.4926842153,788.4984131,-0.04224200547,
788.0089111,0.4948091507,788.0089111,-0.0409646593,
787.484375,0.4952991009,787.484375,-0.0389117226,
786.9946899,0.493373841,786.9946899,-0.03972748667,
786.5048218,0.4964966774,786.5048218,-0.04358004779,
786.0149536,0.4929316342,786.0149536,-0.04409453273,
785.4900513,0.4891756773,785.4900513,-0.03641778231,
784.999939,0.4916059375,784.999939,-0.03777898848,
784.5097656,0.4926640093,784.5097656,-0.04131347686,
783.984436,0.4926770627,783.984436,-0.04167565331,
783.4941406,0.4860747457,783.4941406,-0.04669291899,
783.0036621,0.492300719,783.0036621,-0.03881051019,
782.5131226,0.4861004055,782.5131226,-0.04609128088,
781.9873657,0.4869537055,781.9873657,-0.04049498215,
781.4966431,0.4884828031,781.4966431,-0.03774187341,
781.0058594,0.4917602837,781.0058594,-0.04556088522,
780.5149536,0.4886053801,780.5149536,-0.04652043432,
779.9888306,0.4865331352,779.9888306,-0.04121187702,
779.4976807,0.4920387864,779.4976807,-0.04128118232,
779.0065308,0.4948768616,779.0065308,-0.03812662512,
778.5151978,0.4955344796,778.5151978,-0.04201102257,
777.9887085,0.4908544421,777.9887085,-0.03993560374,
777.4971924,0.490975678,777.4971924,-0.03614505008,
777.0056152,0.4941670299,777.0056152,-0.03842153028,
776.513916,0.490604043,776.513916,-0.04118819535,
775.9870605,0.4888150096,775.9870605,-0.04143749923,
775.4952393,0.4874238372,775.4952393,-0.04108958319,
775.0032349,0.4969668388,775.0032349,-0.0406739302,
774.5112305,0.4928483963,774.5112305,-0.03516914696,
773.9838867,0.4888749123,773.9838867,-0.04187555239,
773.4916382,0.4872322083,773.4916382,-0.03851075098,
772.9993286,0.4873253703,772.9993286,-0.0408818759,
772.506958,0.4915416539,772.506958,-0.0346916765,
772.0144653,0.488011539,772.0144653,-0.04305974767,
771.4866333,0.4904117584,771.4866333,-0.04549403116,
770.9939575,0.4913937747,770.9939575,-0.0371684283,
770.5011597,0.4890614152,770.5011597,-0.03800725192,
770.0082397,0.4914532006,770.0082397,-0.03877490386,
769.5153198,0.4888676107,769.5153198,-0.03752111644,
768.9870605,0.487690866,768.9870605,-0.037393976,
768.4938354,0.4839644134,768.4938354,-0.04097775742,
768.0005493,0.4884880483,768.0005493,-0.03493298218,
767.5072632,0.4897272885,767.5072632,-0.04437943175,
767.013855,0.4919874072,767.013855,-0.03859417886,
766.4850464,0.4896606803,766.4850464,-0.04160039127,
765.991394,0.4863411784,765.991394,-0.03470912203,
765.4976807,0.484808147,765.4976807,-0.03785178438,
765.0038452,0.4837516248,765.0038452,-0.03846792132,
764.5100708,0.4850387871,764.5100708,-0.0395142585,
764.0160522,0.4954015613,764.0160522,-0.04154242948,
763.4866943,0.506413281,763.4866943,-0.03871268034,
762.9924927,0.5042411685,762.9924927,-0.04024164379,
762.49823,0.4930798411,762.49823,-0.03886149824,
762.0038452,0.4918745458,762.0038452,-0.03914289176,
761.5094604,0.489153415,761.5094604,-0.03933412582,
761.0148926,0.4900148809,761.0148926,-0.04096838087,
760.4849243,0.4914020002,760.4849243,-0.03862420842,
759.9902344,0.4866644442,759.9902344,-0.03966813907,
759.4954224,0.4900800288,759.4954224,-0.03083263896,
759.0005493,0.4883226454,759.0005493,-0.04016283154,
758.5055542,0.4902520776,758.5055542,-0.03787114099,
758.010498,0.4881972671,758.010498,-0.03781856596,
757.5153198,0.4873874784,757.5153198,-0.04208470881,
756.9846802,0.4895652235,756.9846802,-0.03773333132,
756.4893188,0.4897248447,756.4893188,-0.03771092743,
755.9939575,0.4856432378,755.9939575,-0.0392085053,
755.4984131,0.4877426922,755.4984131,-0.0400907062,
755.0028076,0.4881765842,755.0028076,-0.03467050195,
754.507019,0.4880422652,754.507019,-0.03781130537,
754.0112915,0.4908946753,754.0112915,-0.04119426757,
753.5154419,0.4940885901,753.5154419,-0.03840882704,
752.9840088,0.4907223582,752.9840088,-0.04646043107,
752.487915,0.4913318157,752.487915,-0.03891513124,
751.9917603,0.4928176105,751.9917603,-0.03761621937,
751.4954834,0.4843989313,751.4954834,-0.03989205882,
750.9992065,0.4918292761,750.9992065,-0.04028265178,
750.5027466,0.4859247804,750.5027466,-0.04031025618,
750.0062256,0.4868885279,750.0062256,-0.03780248016,
749.5096436,0.4892733097,749.5096436,-0.03945110366,
749.0128784,0.4874238372,749.0128784,-0.03684499487,
748.5161743,0.4866778553,748.5161743,-0.04087066278,
747.9838257,0.4901490211,747.9838257,-0.040422488,
747.4868164,0.4907684624,747.4868164,-0.04366634414,
746.9897461,0.4881410599,746.9897461,-0.03792798147,
746.4926147,0.4869645834,746.4926147,-0.04104116186,
745.9954834,0.4878048897,745.9954834,-0.03991232067,
745.4981079,0.4830527306,745.4981079,-0.0387882553,
745.0006714,0.4858889282,745.0006714,-0.04020865634,
744.5032349,0.4887448549,744.5032349,-0.04124893248,
744.0056152,0.4859677851,744.0056152,-0.03959475085,
743.5079956,0.4817974865,743.5079956,-0.03711286932,
743.0102539,0.4858708978,743.0102539,-0.03748792037,
742.5123901,0.4854361117,742.5123901,-0.04118235409,
742.0144653,0.4882993996,742.0144653,-0.0410355553,
741.5164185,0.4854895473,741.5164185,-0.03993621841,
740.9827881,0.4840062261,740.9827881,-0.04319578782,
740.4845581,0.4841570556,740.4845581,-0.04199847579,
739.9862671,0.4846549332,739.9862671,-0.04049663246,
739.487854,0.4833564162,739.487854,-0.04158242047,
738.9893799,0.4835889041,738.9893799,-0.03829555213,
738.4909058,0.4843034446,738.4909058,-0.04138572887,
737.9922485,0.4858338535,737.9922485,-0.03776783496,
737.4935303,0.4813160598,737.4935303,-0.0385960266,
736.9946899,0.484883666,736.9946899,-0.03642325848,
736.4958496,0.4832495153,736.4958496,-0.03986221179,
735.9968262,0.4780038297,735.9968262,-0.03749680147,
735.4977417,0.4841473103,735.4977417,-0.03542746231,
734.9985962,0.4759804308,734.9985962,-0.04080110416,
734.4993286,0.478838712,734.4993286,-0.03989612311,
734.000061,0.4790687859,734.000061,-0.04024608061,
733.5006104,0.4851858914,733.5006104,-0.03558795154,
733.0010986,0.4806388319,733.0010986,-0.03955145925,
732.5015259,0.4794533551,732.5015259,-0.03925836086,
732.0018311,0.4810013771,732.0018311,-0.04096889868,
731.5021362,0.4785075486,731.5021362,-0.04305149615,
731.0022583,0.4784820676,731.0022583,-0.04300695285,
730.5023193,0.4785409272,730.5023193,-0.03928801417,
730.0022583,0.475777775,730.0022583,-0.04165589809,
729.5021973,0.4797337055,729.5021973,-0.0425828509,
729.0019531,0.4773743749,729.0019531,-0.03873455897,
728.501709,0.478420496,728.501709,-0.0412607491,
728.0012817,0.4799048305,728.0012817,-0.03969828784,
727.5008545,0.4761577249,727.5008545,-0.03990783542,
727.0003052,0.4761188328,727.0003052,-0.03486084566,
726.4996948,0.4706602991,726.4996948,-0.03639188409,
725.9990234,0.4727269411,725.9990234,-0.0375575833,
725.49823,0.4753331244,725.49823,-0.04140055552,
724.9973145,0.4707591832,724.9973145,-0.04393463209,
724.4963379,0.4724343717,724.4963379,-0.03697928414,
723.9953003,0.4697850347,723.9953003,-0.043660447,
723.4941406,0.4730976522,723.4941406,-0.03926678002,
722.9929199,0.4720589817,722.9929199,-0.04020643979,
722.4915771,0.474150449,722.4915771,-0.0384766385,
721.9902344,0.4720097184,721.9902344,-0.03828384355,
721.4887085,0.4732577503,721.4887085,-0.03857480362,
720.9871216,0.4688235521,720.9871216,-0.04143669829,
720.4854736,0.4706500173,720.4854736,-0.03948211297,
719.9838257,0.4731231928,719.9838257,-0.03556343168,
719.5178223,0.4688228369,719.5178223,-0.0445770137,
719.0159302,0.4670569599,719.0159302,-0.0435025841,
718.513916,0.4673024714,718.513916,-0.03889326379,
718.0118408,0.4672037661,718.0118408,-0.03689136356,
717.5096436,0.4625785649,717.5096436,-0.03723358363,
717.0074463,0.4689470232,717.0074463,-0.04121103138,
716.505127,0.4725277722,716.505127,-0.04707330838,
716.0026855,0.4786090255,716.0026855,-0.03998787701,
715.5002441,0.4734789133,715.5002441,-0.03917104006,
714.9976807,0.4741580486,714.9976807,-0.04591865093,
714.4949951,0.4752025902,714.4949951,-0.0403342694,
713.9922485,0.4759140313,713.9922485,-0.04263274372,
713.4894409,0.4739242792,713.4894409,-0.04443280771,
712.9864502,0.4754411876,712.9864502,-0.0409254618,
712.4834595,0.474185288,712.4834595,-0.04162461683,
712.0162964,0.4749410152,712.0162964,-0.04667199403,
711.5131836,0.477735281,711.5131836,-0.04427915439,
711.0100098,0.4790097177,711.0100098,-0.039058391,
710.5066528,0.4758189619,710.5066528,-0.0455869399,
710.0032349,0.4767927527,710.0032349,-0.04340716824,
709.4996948,0.4747237265,709.4996948,-0.03877745941,
708.9960938,0.4812990427,708.9960938,-0.04485790804,
708.4924316,0.4791722894,708.4924316,-0.04263912514,
707.9887085,0.4781863391,707.9887085,-0.04132943228,
707.4848633,0.4841731787,707.4848633,-0.03836973011,
707.0169678,0.4838590324,707.0169678,-0.03981483355,
706.5130005,0.4815950096,706.5130005,-0.04368732125,
706.0089111,0.4825453758,706.0089111,-0.03953552991,
705.5047607,0.4803038538,705.5047607,-0.04431094602,
705.0004883,0.4820353687,705.0004883,-0.04657043517,
704.4961548,0.4816685021,704.4961548,-0.03816830739,
703.9916992,0.4781556427,703.9916992,-0.04342197254,
703.4872437,0.4771317244,703.4872437,-0.04071668535,
702.982666,0.4793448746,702.982666,-0.04137462005,
702.5140381,0.4740377665,702.5140381,-0.03906482458,
702.0093384,0.4804912508,702.0093384,-0.04534551129,
701.5044556,0.4789403677,701.5044556,-0.04536113515,
700.9996338,0.4833267927,700.9996338,-0.04932395741,
700.4946289,0.4706601799,700.4946289,-0.04543989897,
699.989563,0.4794596434,699.989563,-0.04510040209,
699.484375,0.4857682586,699.484375,-0.0459703505,
699.0152588,0.5015391111,699.0152588,-0.04636961594,
698.5098877,0.5075706244,698.5098877,-0.04130792245,
698.0045166,0.5023087263,698.0045166,-0.04729251564,
697.4991455,0.498598665,697.4991455,-0.0440674983,
696.9935303,0.4942519069,696.9935303,-0.03718074039,
696.487915,0.4937087595,696.487915,-0.04163656756,
695.9821167,0.4908001125,695.9821167,-0.04683786258,
695.5125122,0.4923419356,695.5125122,-0.03693635017,
695.0065918,0.4923632145,695.0065918,-0.04263687134,
694.5006104,0.496297121,694.5006104,-0.0387291126,
693.9945068,0.4954540431,693.9945068,-0.03815602511,
693.4884033,0.4920801818,693.4884033,-0.04232617468,
692.9822998,0.4907845259,692.9822998,-0.03652764857,
692.512085,0.4907377958,692.512085,-0.04015183449,
692.0057373,0.491655916,692.0057373,-0.04180089012,
691.4993286,0.4924576581,691.4993286,-0.03883754462,
690.9927368,0.492988497,690.9927368,-0.04617438093,
690.486145,0.4940357804,690.486145,-0.03835797682,
690.015686,0.4932815433,690.015686,-0.04542838037,
689.5089111,0.4927527905,689.5089111,-0.04379119352,
689.0020142,0.4941637814,689.0020142,-0.04849006608,
688.4951172,0.4932802916,688.4951172,-0.05333255231,
687.9881592,0.4945912063,687.9881592,-0.04370908812,
687.5172119,0.4934915304,687.5172119,-0.03734091297,
687.0100098,0.4950970411,687.0100098,-0.04391469806,
686.5027466,0.4945104122,686.5027466,-0.0446289666,
685.9954224,0.497045815,685.9954224,-0.04207169265,
685.4880981,0.4912611842,685.4880981,-0.03864055127,
685.0167847,0.4906636775,685.0167847,-0.04324457794,
684.5092773,0.4893571734,684.5092773,-0.04333848506,
684.0015869,0.4892388582,684.0015869,-0.0436090827,
683.4938965,0.4904986322,683.4938965,-0.04300615564,
682.9860229,0.493560046,682.9860229,-0.04380856082,
682.5144653,0.4901577532,682.5144653,-0.03899147362,
682.0064697,0.4902922511,682.0064697,-0.04104700312,
681.4984131,0.4894106984,681.4984131,-0.04044432938,
680.9902954,0.494672358,680.9902954,-0.03794800118,
680.4820557,0.5044611096,680.4820557,-0.04440644756,
680.0100708,0.5054522157,680.0100708,-0.03724313155,
679.501709,0.5054056644,679.501709,-0.04919195175,
678.9932861,0.5012308359,678.9932861,-0.03826601803,
678.4848022,0.5077283382,678.4848022,-0.04131686687,
678.0125122,0.5059453845,678.0125122,-0.04685840756,
677.5038452,0.4990182519,677.5038452,-0.04510968924,
676.9950562,0.5002272129,676.9950562,-0.04541252553,
676.4862061,0.4993932545,676.4862061,-0.04139292985,
676.0136719,0.5009426475,676.0136719,-0.04183930531,
675.5046387,0.5002113581,675.5046387,-0.04419826344,
674.9956055,0.5006312728,674.9956055,-0.04126432911,
674.4864502,0.5055721402,674.4864502,-0.04162245244,
674.0136108,0.5025838614,674.0136108,-0.03891995922,
673.5042725,0.5059047937,673.5042725,-0.04065313935,
672.994873,0.50326401,672.994873,-0.03996624798,
672.4854126,0.5019227862,672.4854126,-0.04324692115,
672.0123291,0.5010665655,672.0123291,-0.04324715212,
671.5026855,0.494812876,671.5026855,-0.0429190211,
670.9929199,0.5007686615,670.9929199,-0.04395353422,
670.4832153,0.4983119667,670.4832153,-0.04122275487,
670.0097046,0.5020561814,670.0097046,-0.04018576816,
669.4997559,0.5064387321,669.4997559,-0.03906818479,
668.9897461,0.5080901384,668.9897461,-0.04256313667,
668.5161743,0.5088258386,668.5161743,-0.04098746181,
668.0059814,0.5041908026,668.0059814,-0.04260462895,
667.4957275,0.5029726028,667.4957275,-0.03952229396,
666.9854126,0.5004469752,666.9854126,-0.03977609798,
666.5114746,0.4989978671,666.5114746,-0.0434442237,
666.0009766,0.499910742,666.0009766,-0.04117533937,
665.4904785,0.5041586757,665.4904785,-0.04121183231,
665.0162964,0.4982567132,665.0162964,-0.04234176502,
664.5056152,0.5012800097,664.5056152,-0.03905753791,
663.994873,0.4963800907,663.994873,-0.03783896938,
663.4839478,0.4958857298,663.4839478,-0.04512168095,
663.0095215,0.4941720665,663.0095215,-0.04860427976,
662.4985352,0.4930499494,662.4985352,-0.0395735763,
661.9874268,0.4921679199,661.9874268,-0.04257398099,
661.5128174,0.4897665381,661.5128174,-0.0405289866,
661.0015259,0.4926113784,661.0015259,-0.0382611379,
660.4902344,0.4980193377,660.4902344,-0.04609318823,
660.0153809,0.5038003922,660.0153809,-0.04379798099,
659.5039063,0.5152699351,659.5039063,-0.0356823355,
658.9924316,0.5203561187,658.9924316,-0.0457521528,
658.5172729,0.5163114667,658.5172729,-0.04546647519,
658.0055542,0.5085541606,658.0055542,-0.04091580212,
657.4938354,0.5072255731,657.4938354,-0.04585600272,
656.9819336,0.5036340356,656.9819336,-0.04217820987,
656.5065918,0.5068601966,656.5065918,-0.04204147682,
655.9946289,0.5063237548,655.9946289,-0.0373804383,
655.4825439,0.5000687838,655.4825439,-0.04585446417,
655.006958,0.5020521283,655.006958,-0.04531496018,
654.4946899,0.5001996756,654.4946899,-0.04630153626,
653.9824219,0.4990181625,653.9824219,-0.03911781684,
653.5066528,0.4992629588,653.5066528,-0.04393640906,
652.9942017,0.5012041926,652.9942017,-0.04130448401,
652.5183105,0.5036575198,652.5183105,-0.04360318184,
652.0056152,0.504760325,652.0056152,-0.04070692882,
651.4929199,0.5055832267,651.4929199,-0.04334190488,
651.0169067,0.5056217909,651.0169067,-0.0404080525,
650.5040283,0.5048145056,650.5040283,-0.0423636958,
649.9910889,0.5069952607,649.9910889,-0.04827840999,
649.5147705,0.5024936795,649.5147705,-0.039245639,
649.001709,0.504814446,649.001709,-0.04810488969,
648.4885864,0.501539588,648.4885864,-0.03838247806,
648.012085,0.5023863316,648.012085,-0.03646891192,
647.4987793,0.5029353499,647.4987793,-0.04632992297,
646.9854126,0.5032861233,646.9854126,-0.04476455972,
646.508667,0.5025006533,646.508667,-0.03974501416,
645.9951782,0.501763165,645.9951782,-0.03935601935,
645.5183105,0.5017007589,645.5183105,-0.03917350248,
645.0046387,0.5050720572,645.0046387,-0.04040663689,
644.4909668,0.5055525899,644.4909668,-0.03757615015,
644.0137939,0.5008382797,644.0137939,-0.04331247881,
643.499939,0.505225718,643.499939,-0.04228672385,
642.9860229,0.5057237744,642.9860229,-0.0378526859,
642.508728,0.505274415,642.508728,-0.0402613692,
641.9946289,0.5020112395,641.9946289,-0.04112707078,
641.5171509,0.5014882684,641.5171509,-0.04136690125,
641.0029297,0.5025399327,641.0029297,-0.04239778966,
640.4885864,0.5031061172,640.4885864,-0.04170194641,
640.0109863,0.5013746023,640.0109863,-0.03964654729,
639.496521,0.5042114258,639.496521,-0.04105595127,
638.9819336,0.4992040098,638.9819336,-0.03939739242,
638.5040894,0.5046816468,638.5040894,-0.03958009928,
637.9894409,0.5012882948,637.9894409,-0.03965013847,
637.5114746,0.5035444498,637.5114746,-0.04692342132,
636.9966431,0.5008882284,636.9966431,-0.03881902993,
636.4817505,0.5052348971,636.4817505,-0.03725548834,
636.00354,0.5026548505,636.00354,-0.04353101552,
635.4884644,0.504670918,635.4884644,-0.038030494,
635.0101929,0.4987330139,635.0101929,-0.04315369576,
634.4949951,0.5058443546,634.4949951,-0.03938935325,
634.0164795,0.5136477351,634.0164795,-0.05000969023,
633.5011597,0.5101225972,633.5011597,-0.03860009834,
632.9857178,0.5058494806,632.9857178,-0.03882073611,
632.5071411,0.5041502118,632.5071411,-0.04022517428,
631.9915771,0.5024363995,631.9915771,-0.04885024205,
631.5127563,0.5011284351,631.5127563,-0.04123471305,
630.9970093,0.4995056987,630.9970093,-0.04452501237,
630.5181274,0.4988498092,630.5181274,-0.04062164575,
630.0023193,0.4978594184,630.0023193,-0.04018189758,
629.4863892,0.4999077916,629.4863892,-0.04079148918,
629.0072021,0.5040974617,629.0072021,-0.04576338083,
628.4912109,0.493033886,628.4912109,-0.04916130379,
628.0119019,0.4924158156,628.0119019,-0.04547426105,
627.4956665,0.5028597713,627.4956665,-0.04827354848,
627.0162964,0.5096142292,627.0162964,-0.04816360399,
626.499939,0.5120481253,626.499939,-0.04397931695,
625.9835205,0.5112918019,625.9835205,-0.04512196034,
625.5039063,0.5110995173,625.5039063,-0.04200900346,
624.9873657,0.5072337985,624.9873657,-0.03704189882,
624.5076294,0.5072880387,624.5076294,-0.04628897086,
623.9909668,0.5042476654,623.9909668,-0.04061787203,
623.5109863,0.5074664354,623.5109863,-0.04201779142,
622.9942017,0.5060995817,622.9942017,-0.04554177076,
622.5142212,0.5045004487,622.5142212,-0.04367116839,
621.9972534,0.5020523667,621.9972534,-0.04076033458,
621.5170898,0.5060394406,621.5170898,-0.04115654901,
620.999939,0.5040858984,620.999939,-0.04258092865,
620.4827271,0.5038670897,620.4827271,-0.04196717218,
620.0024414,0.5033276081,620.0024414,-0.04175668582,
619.4851074,0.5006350279,619.4851074,-0.03754609451,
619.0045776,0.5027213693,619.0045776,-0.04104224592,
618.4871216,0.5058771968,618.4871216,-0.04249450937,
618.0065918,0.5035985708,618.0065918,-0.04178348929,
617.4889526,0.5084196329,617.4889526,-0.05240378156,
617.0082397,0.5033420324,617.0082397,-0.04077169299,
616.4904175,0.503057301,616.4904175,-0.0422918424,
616.0095215,0.506116271,616.0095215,-0.04058958218,
615.4916992,0.5037260056,615.4916992,-0.04159140587,
615.0106812,0.4994536936,615.0106812,-0.03750330582,
614.4926147,0.5040774941,614.4926147,-0.04709244519,
614.0115356,0.5016356111,614.0115356,-0.04180521518,
613.4932861,0.4983326495,613.4932861,-0.03944453225,
613.012146,0.498541683,613.012146,-0.03963099793,
612.4937744,0.4984460771,612.4937744,-0.04435886443,
612.0123901,0.4974626005,612.0123901,-0.04058500752,
611.4938965,0.4968832433,611.4938965,-0.03873735294,
611.0124512,0.4907615483,611.0124512,-0.03675262257,
610.4938354,0.4965495765,610.4938354,-0.0470033884,
610.012207,0.5048744082,610.012207,-0.05132437125,
609.4934082,0.5172835588,609.4934082,-0.04309298843,
609.0116577,0.5173328519,609.0116577,-0.04790630937,
608.4927979,0.5078251362,608.4927979,-0.04053143784,
608.0108643,0.5021032691,608.0108643,-0.03952475265,
607.4918213,0.4985956848,607.4918213,-0.04263668507,
607.0098877,0.4951609373,607.0098877,-0.04240389168,
606.4907227,0.4969409406,606.4907227,-0.04736730829,
606.008606,0.4946611524,606.008606,-0.03861591965,
605.4892578,0.4970245957,605.4892578,-0.04267061502,
605.006958,0.5080105066,605.006958,-0.04176679626,
604.4875488,0.5141519904,604.4875488,-0.04292450845,
604.005127,0.508666575,604.005127,-0.04221147299,
603.4855347,0.5194492936,603.4855347,-0.04777145758,
603.0030518,0.5179476738,603.0030518,-0.04147712141,
602.4833374,0.5205420852,602.4833374,-0.04691682383,
602.0006714,0.508359313,602.0006714,-0.04504057392,
601.5179443,0.5071800351,601.5179443,-0.04300775006,
600.9980469,0.50749892,600.9980469,-0.04168689623,
600.5151978,0.5056971312,600.5151978,-0.04299518093,
599.9951172,0.5048534274,599.9951172,-0.04620365798,
599.512146,0.4996192753,599.512146,-0.03869170323,
598.9920044,0.4961421788,598.9920044,-0.03882731497,
598.5088501,0.4915853739,598.5088501,-0.03045198508,
597.9885254,0.4953778088,597.9885254,-0.03673335537,
597.5053101,0.4909990132,597.5053101,-0.04430856183,
596.9848633,0.5158856511,596.9848633,-0.04645489529,
596.5015259,0.5215460658,596.5015259,-0.04404948652,
596.0181274,0.5185391903,596.0181274,-0.04385086894,
595.4974365,0.5110173821,595.4974365,-0.04309008271,
595.013916,0.5096995831,595.013916,-0.04634146392,
594.493103,0.508076787,594.493103,-0.04358782247,
594.0093994,0.5133419037,594.0093994,-0.04116008058,
593.4885254,0.5118287802,593.4885254,-0.04225722328,
593.0046997,0.5100756884,593.0046997,-0.04106560722,
592.4835815,0.503092885,592.4835815,-0.03675276414,
591.9996948,0.5049607158,591.9996948,-0.04429280758,
591.515686,0.5038811564,591.515686,-0.04543929175,
590.9944458,0.5076984167,590.9944458,-0.04514510557,
590.510376,0.5047140121,590.510376,-0.03803746402,
589.9889526,0.5062249303,589.9889526,-0.04810896888,
589.5047607,0.5072017312,589.5047607,-0.04266826808,
588.9832153,0.5085250735,588.9832153,-0.04296924919,
588.4989014,0.5059195161,588.4989014,-0.04841741174,
588.0144043,0.4979344606,588.0144043,-0.04298411682,
587.4926758,0.5065489411,587.4926758,-0.03889766335,
587.0081787,0.5020258427,587.0081787,-0.04770494625,
586.4862671,0.5057835579,586.4862671,-0.04311952367,
586.0015869,0.5091968775,586.0015869,-0.04380977526,
585.5169067,0.503569901,585.5169067,-0.04322339222,
584.994873,0.5090387464,584.994873,-0.04426190257,
584.5100098,0.5035049915,584.5100098,-0.05050859973,
583.987793,0.5038985014,583.987793,-0.04649443552,
583.5028076,0.5045487881,583.5028076,-0.04311459884,
583.0178223,0.5080704093,583.0178223,-0.04980145395,
582.4953613,0.5026872754,582.4953613,-0.05043807998,
582.0102539,0.5029270649,582.0102539,-0.04360964149,
581.4877319,0.5058333874,581.4877319,-0.04208094999,
581.0025024,0.5052527189,581.0025024,-0.0436119847,
580.5171509,0.5068852901,580.5171509,-0.04288379848,
579.9943848,0.5045515895,579.9943848,-0.0459539555,
579.5089722,0.502946198,579.5089722,-0.04302570596,
578.986084,0.4987979233,578.986084,-0.04050799832,
578.5005493,0.4994989932,578.5005493,-0.04144822806,
578.0148315,0.4998449385,578.0148315,-0.05169139802,
577.4918213,0.5048744082,577.4918213,-0.04832371324,
577.0061035,0.4995406568,577.0061035,-0.04418774322,
576.4828491,0.5025967956,576.4828491,-0.03789747506,
575.9969482,0.5026945472,575.9969482,-0.04221884906,
575.5111084,0.5030890703,575.5111084,-0.0352405645,
574.9876709,0.5120326281,574.9876709,-0.04819307104,
574.5015869,0.5135050416,574.5015869,-0.03993059695,
574.0154419,0.5094121695,574.0154419,-0.04817203432,
573.4918823,0.5003798008,573.4918823,-0.04101798683,
573.0056763,0.4960193038,573.0056763,-0.04350085184,
572.4819946,0.5007504225,572.4819946,-0.04679914564,
571.9956055,0.5107591748,571.9956055,-0.04580843449,
571.5092163,0.5185866952,571.5092163,-0.04470454529,
570.9852905,0.5188148618,570.9852905,-0.04626798257,
570.4987793,0.5109809637,570.4987793,-0.0409273915,
570.012146,0.5068672895,570.012146,-0.04824598134,
569.4880371,0.5133287907,569.4880371,-0.04810591042,
569.0013428,0.5124554038,569.0013428,-0.04679142684,
568.5145264,0.5068349838,568.5145264,-0.04802827537,
567.9902344,0.499699086,567.9902344,-0.05581668019,
567.503418,0.4977136552,567.503418,-0.05168583617,
567.0164795,0.4946177602,567.0164795,-0.03992658481,
566.4920044,0.5061228871,566.4920044,-0.04621376097,
566.0048828,0.5114579201,566.0048828,-0.04589494318,
565.5178223,0.5159133077,565.5178223,-0.04624997079,
564.993103,0.5070376396,564.993103,-0.04828693345,
564.5057983,0.5035564899,564.5057983,-0.04598963261,
564.0185547,0.5083702803,564.0185547,-0.04383069649,
563.4937134,0.5023024082,563.4937134,-0.0478233546,
563.0062866,0.5021597743,563.0062866,-0.04386720061,
562.4812622,0.5028790236,562.4812622,-0.04687337205,
561.9937134,0.4980958402,561.9937134,-0.04413344711,
561.5061035,0.5035987496,561.5061035,-0.04219286889,
561.0184326,0.5064803362,561.0184326,-0.0444486998,
560.4932251,0.50643152,560.4932251,-0.04385348782,
560.0054321,0.5015813708,560.0054321,-0.04421593994,
559.5175781,0.5014580488,559.5175781,-0.04102104902,
558.9921265,0.4963481724,558.9921265,-0.04423623532,
558.5041504,0.5006542802,558.5041504,-0.03809698671,
558.0161743,0.4981549978,558.0161743,-0.04011109844,
557.4906006,0.4967106879,557.4906006,-0.04737055674,
557.0023804,0.5009160042,557.0023804,-0.04167428985,
556.5142822,0.5013226271,556.5142822,-0.04045437276,
555.9884644,0.4986176193,555.9884644,-0.03282342851,
555.5001831,0.4979911447,555.5001831,-0.0398405306,
555.0117188,0.4934972227,555.0117188,-0.04324841872,
554.4858398,0.4919842184,554.4858398,-0.0476805456,
553.9973145,0.490968436,553.9973145,-0.04117628187,
553.5087891,0.4879434109,553.5087891,-0.04031605646,
552.982605,0.5006112456,552.982605,-0.03757045045,
552.4939575,0.5060274005,552.4939575,-0.05007239059,
552.005249,0.5094273686,552.005249,-0.04181532562,
551.5164795,0.4988739491,551.5164795,-0.03717693686,
550.9900513,0.4987843931,550.9900513,-0.04504103959,
550.5012207,0.4928512573,550.5012207,-0.04068038613,
550.012207,0.4916938245,550.012207,-0.03978224099,
549.4855957,0.4918663204,549.4855957,-0.0407775864,
548.996582,0.488399595,548.996582,-0.04168360308,
548.5075073,0.4806066453,548.5075073,-0.04265221953,
548.0182495,0.4766573608,548.0182495,-0.03828403354,
547.491394,0.4857504368,547.491394,-0.04367903247,
547.0021973,0.4871577024,547.0021973,-0.04978912696,
546.5128174,0.4985446334,546.5128174,-0.04031902924,
545.9857178,0.4917126894,545.9857178,-0.03751380369,
545.4963379,0.4924269617,545.4963379,-0.04953792319,
545.0068359,0.4855590463,545.0068359,-0.04952023178,
544.5172119,0.4764126539,544.5172119,-0.03893846646,
543.9899292,0.479142487,543.9899292,-0.04115876183,
543.5003052,0.4824296832,543.5003052,-0.03721010685,
543.0105591,0.4865687788,543.0105591,-0.03527775034,
542.4830322,0.482622236,542.4830322,-0.0292104017,
541.9932251,0.4773983359,541.9932251,-0.03989347816,
541.5032959,0.493786484,541.5032959,-0.04146818072,
541.0133667,0.5151577592,541.0133667,-0.03884223104,
540.4855957,0.515997231,540.4855957,-0.0361347571,
539.9956665,0.5077382922,539.9956665,-0.04165961593,
539.5054321,0.4992392659,539.5054321,-0.04283722118,
539.0152588,0.4950029552,539.0152588,-0.03838285804,
538.4873657,0.487211138,538.4873657,-0.03636755422,
537.9970093,0.4849390388,537.9970093,-0.04694540054,
537.5067139,0.4704643786,537.5067139,-0.04138299823,
537.0162964,0.4786303341,537.0162964,-0.04341480508,
536.4880981,0.5022130013,536.4880981,-0.03513557836,
535.9974976,0.5020575523,535.9974976,-0.04524476081,
535.506958,0.4932906628,535.506958,-0.03924289346,
535.0163574,0.4830996394,535.0163574,-0.03419626132,
534.487915,0.4640779793,534.487915,-0.04675200954,
533.9971313,0.4668559134,533.9971313,-0.03839939833,
533.5064087,0.4814549088,533.5064087,-0.03859128803,
533.0155029,0.5039004683,533.0155029,-0.03821282834,
532.4868774,0.5142328739,532.4868774,-0.03950144723,
531.9958496,0.4994697273,531.9958496,-0.04195067286,
531.5048218,0.4884731174,531.5048218,-0.03864230216,
531.0137329,0.4768842161,531.0137329,-0.04054120183,
530.4848633,0.4775053263,530.4848633,-0.04064752907,
529.9937134,0.4755126536,529.9937134,-0.03965018317,
529.5025024,0.4658344388,529.5025024,-0.03833806887,
529.0111694,0.4737453163,529.0111694,-0.03985281289,
528.4819946,0.5010687113,528.4819946,-0.04324729368,
527.9906006,0.5296143889,527.9906006,-0.0409110412,
527.4990845,0.5228632689,527.4990845,-0.04967083782,
527.0076294,0.5083853006,527.0076294,-0.04899271205,
526.5160522,0.500865221,526.5160522,-0.04819650203,
525.9866333,0.5009205341,525.9866333,-0.03488263115,
525.4949341,0.501550734,525.4949341,-0.0388837941,
525.0032959,0.5115472674,525.0032959,-0.03595636413,
524.5114136,0.5088208318,524.5114136,-0.04066652805,
523.9817505,0.5073708892,523.9817505,-0.03140978515,
523.4898071,0.5017403364,523.4898071,-0.043307513,
522.9979248,0.503118515,522.9979248,-0.03957854211,
522.5059204,0.5005030036,522.5059204,-0.03597247228,
522.0137939,0.4995808303,522.0137939,-0.04241544381,
521.4839478,0.4952474535,521.4839478,-0.03847436234,
520.9916992,0.4945022762,520.9916992,-0.04648899287,
520.4994507,0.4938062131,520.4994507,-0.04222598672,
520.0072021,0.4936201572,520.0072021,-0.0421968624,
519.5148315,0.4937570095,519.5148315,-0.0437666215,
518.9846191,0.4873911142,518.9846191,-0.04731637985,
518.4921875,0.4973203242,518.4921875,-0.03880553693,
517.9997559,0.5085415244,517.9997559,-0.04243192449,
517.5071411,0.5121267438,517.5071411,-0.03650870547,
517.0145874,0.5166130662,517.0145874,-0.0437211208,
516.4840698,0.5099548697,516.4840698,-0.04168929532,
515.991333,0.505255878,515.991333,-0.04372093454,
515.4985962,0.50234586,515.4985962,-0.0494220145,
515.0057983,0.5027769804,515.0057983,-0.04746111855,
514.5129395,0.5004764199,514.5129395,-0.04074515775,
513.9821167,0.5022994876,513.9821167,-0.04134529829,
513.4891357,0.5003341436,513.4891357,-0.04539098218,
512.9960938,0.4980127215,512.9960938,-0.04272063449,
512.5029907,0.5000537634,512.5029907,-0.03424946964,
512.0098877,0.5018575788,512.0098877,-0.03638464585,
511.5167236,0.5093700886,511.5167236,-0.04001615942,
510.9855347,0.5054887533,510.9855347,-0.04842820019,
510.492218,0.5043157339,510.492218,-0.03850876167,
509.9989319,0.508317709,509.9989319,-0.03859744594,
509.5054932,0.5093129873,509.5054932,-0.04621599615,
509.0120544,0.5045098662,509.0120544,-0.04569464922,
508.5185852,0.5070483685,508.5185852,-0.03749001026,
507.9870911,0.5011442304,507.9870911,-0.03419559076,
507.4934692,0.5043617487,507.4934692,-0.03601454943,
506.9998474,0.5048809052,506.9998474,-0.04162377119,
506.506134,0.5111594796,506.506134,-0.04113003612,
506.0122986,0.5083004832,506.0122986,-0.04506843537,
505.5185852,0.5023157001,505.5185852,-0.04302950576,
504.9867249,0.5028296113,504.9867249,-0.03839826211,
504.4927979,0.5021480918,504.4927979,-0.03247218952,
503.9988403,0.4959132373,503.9988403,-0.03856826574,
503.5048218,0.5130695701,503.5048218,-0.042211283,
503.0107117,0.507117331,503.0107117,-0.04262631387,
502.5166321,0.5098475218,502.5166321,-0.03640845045,
501.984436,0.5074470639,501.984436,-0.03617353365,
501.4901733,0.5068548918,501.4901733,-0.03629231825,
500.9959106,0.499153018,500.9959106,-0.04169851169,
500.5015564,0.5018187761,500.5015564,-0.04375164211,
500.0072021,0.499458164,500.0072021,-0.04507062957,
499.5127258,0.5028397441,499.5127258,-0.04318974167,
499.0183105,0.5027460456,499.0183105,-0.04144098237,
498.4857178,0.4991796017,498.4857178,-0.0473857373,
497.9911194,0.499781698,497.9911194,-0.03869406879,
497.496521,0.4997825325,497.496521,-0.03663815185,
497.0018311,0.5039699674,497.0018311,-0.04279889539,
496.5070496,0.5124679804,496.5070496,-0.04055511206,
496.0122986,0.5103881359,496.0122986,-0.04396911711,
495.517395,0.5147957802,495.517395,-0.04669840261,
494.9844666,0.5106036067,494.9844666,-0.04190075025,
494.4895325,0.5010781884,494.4895325,-0.04177695513,
493.9945068,0.5042854548,493.9945068,-0.03931303322,
493.4994812,0.4966436327,493.4994812,-0.04299480841,
493.0043945,0.4928124249,493.0043945,-0.04079153761,
492.5092468,0.4893915653,492.5092468,-0.04500832036,
492.0140381,0.4746288657,492.0140381,-0.04191504046,
491.5187988,0.4878269732,491.5187988,-0.03999750689,
490.9854431,0.5200157762,490.9854431,-0.03570937365,
490.4900208,0.5365027189,490.4900208,-0.05336222425,
489.9946289,0.5221194625,489.9946289,-0.04398137331,
489.499176,0.5065456033,489.499176,-0.04863718897,
489.0036926,0.4958411455,489.0036926,-0.04025037587,
488.5081787,0.4937108159,488.5081787,-0.03877850249,
488.0125732,0.4900957048,488.0125732,-0.04111737013,
487.5168457,0.5065509677,487.5168457,-0.04154177383,
486.9830322,0.5186421871,486.9830322,-0.04387234896,
486.4873352,0.5250997543,486.4873352,-0.04122412205,
485.9915161,0.5200051665,485.9915161,-0.03641597554,
485.4956055,0.5102056265,485.4956055,-0.0372960642,
484.9997559,0.4897260368,484.9997559,-0.03806767613,
484.5037842,0.478497684,484.5037842,-0.03530576825,
484.007843,0.4899267852,484.007843,-0.037815433,
483.5117493,0.5170322657,483.5117493,-0.04150182381,
483.015625,0.5535068512,483.015625,-0.04642833024,
482.4813538,0.5453872085,482.4813538,-0.03885851428,
481.9851379,0.5361822248,481.9851379,-0.05273807794,
481.4888916,0.5290737748,481.4888916,-0.03718074039,
480.9925537,0.5212079287,480.9925537,-0.03671727329,
480.4962769,0.5219803452,480.4962769,-0.04061164707,
479.9998169,0.5120905042,479.9998169,-0.03969748318,
479.5033875,0.5059167743,479.5033875,-0.04448813945,
479.006897,0.5038257837,479.006897,-0.03623997793,
478.5103455,0.5065432787,478.5103455,-0.03537182137,
478.0137634,0.5061061382,478.0137634,-0.04268614575,
477.5171204,0.500561893,477.5171204,-0.03893733025,
476.9822083,0.5124908686,476.9822083,-0.04250328615,
476.4854431,0.5052548051,476.4854431,-0.0376701504,
475.9887085,0.5023970604,475.9887085,-0.04809293151,
475.4918213,0.5044271946,475.4918213,-0.0382095091,
474.9949341,0.5024045706,474.9949341,-0.04850196466,
474.4980774,0.5079026222,474.4980774,-0.03667302802,
474.0010376,0.5037735105,474.0010376,-0.04199748859,
473.5040588,0.5078652501,473.5040588,-0.04062701762,
473.006958,0.5070672035,473.006958,-0.0390994139,
472.5097656,0.5078585148,472.5097656,-0.04013989121,
472.0126648,0.5037564635,472.0126648,-0.03901608288,
471.5153809,0.5044181347,471.5153809,-0.04511692002,
471.0181274,0.5035960674,471.0181274,-0.03731050715,
470.4825134,0.5097252727,470.4825134,-0.03878579289,
469.985199,0.509811759,469.985199,-0.0396768339,
469.4877625,0.5118660927,469.4877625,-0.04050630331,
468.9903259,0.5085389614,468.9903259,-0.03416343406,
468.4927673,0.5092442036,468.4927673,-0.03684114292,
467.9952087,0.5081584454,467.9952087,-0.03732708842,
467.4976196,0.5079493523,467.4976196,-0.03809186444,
466.9999695,0.5056425929,466.9999695,-0.0440906994,
466.5021973,0.5097711086,466.5021973,-0.04495748878,
466.0045166,0.5138238072,466.0045166,-0.04816680029,
465.5066528,0.5103005767,465.5066528,-0.0441150181,
465.0088196,0.5057542324,465.0088196,-0.04286587983,
464.5109253,0.5076171756,464.5109253,-0.03621326014,
464.01297,0.5092228651,464.01297,-0.04251624271,
463.5149231,0.5101672411,463.5149231,-0.03837565333,
463.0169983,0.5139878988,463.0169983,-0.0432491228,
462.5188599,0.5075391531,462.5188599,-0.0377587229,
461.9823608,0.4989486635,461.9823608,-0.0350292325,
461.4842224,0.5078765154,461.4842224,-0.03957773745,
460.9859314,0.505651772,460.9859314,-0.04016934335,
460.4877014,0.5041355491,460.4877014,-0.04249995574,
459.9893799,0.50219208,459.9893799,-0.04811030999,
459.4909973,0.515175283,459.4909973,-0.04791052639,
458.9925537,0.5288589597,458.9925537,-0.04392677173,
458.4941406,0.5405463576,458.4941406,-0.04215594009,
457.9956055,0.5299425125,457.9956055,-0.03738623112,
457.4970703,0.523724556,457.4970703,-0.04539760575,
456.9984436,0.515953064,456.9984436,-0.04283830151,
456.4997864,0.5161160827,456.4997864,-0.0374937132,
456.0010986,0.5191496015,456.0010986,-0.03805069625,
455.5023804,0.5177414417,455.5023804,-0.04473224282,
455.0035095,0.5163034797,455.0035095,-0.03631012887,
454.5047607,0.5150367618,454.5047607,-0.03841878101,
454.0058289,0.5202069283,454.0058289,-0.03524075821,
453.5069275,0.5093670487,453.5069275,-0.03911602125,
453.0079651,0.5054074526,453.0079651,-0.0528447628,
452.5089417,0.5136172175,452.5089417,-0.04607545212,
452.0098267,0.5142018199,452.0098267,-0.0416004397,
451.5107727,0.5208094716,451.5107727,-0.03402869776,
451.0115662,0.5168326497,451.0115662,-0.03685859591,
450.5123901,0.5214303732,450.5123901,-0.03440723568,
450.013092,0.5170930624,450.013092,-0.03950376436,
449.5137939,0.5080247521,449.5137939,-0.04902198538,
449.0144958,0.5045499206,449.0144958,-0.04993996769,
448.5150757,0.5098421574,448.5150757,-0.03401965275,
448.015625,0.5130215883,448.015625,-0.04103032872,
447.5161438,0.5136178732,447.5161438,-0.04760353267,
447.0166016,0.511027813,447.0166016,-0.04700543359,
446.5170593,0.5172700882,446.5170593,-0.03682620823,
446.0174561,0.5175878406,446.0174561,-0.03738580272,
445.5177612,0.5270156264,445.5177612,-0.03838513419,
445.0180664,0.5274493098,445.0180664,-0.04097139463,
444.5183411,0.5273758173,444.5183411,-0.03513963893,
444.0184937,0.5271827579,444.0184937,-0.04022838548,
443.5186462,0.5248622298,443.5186462,-0.04341115057,
443.0187683,0.5259130597,443.0187683,-0.05663145706,
442.5188293,0.521023035,442.5188293,-0.04827840999,
442.0188599,0.5167452693,442.0188599,-0.0400342904,
441.5188599,0.5227047801,441.5188599,-0.0416162461,
441.0187988,0.5172982216,441.0187988,-0.04751843214,
440.5186462,0.5139011145,440.5186462,-0.03784105927,
440.0184937,0.5189279914,440.0184937,-0.04139377549,
439.5183105,0.5286569595,439.5183105,-0.04277834669,
439.0180359,0.5322862267,439.0180359,-0.04575042799,
438.5177612,0.5303704739,438.5177612,-0.04057986662,
438.0174255,0.5275497437,438.0174255,-0.03178339079,
437.5170593,0.5245295763,437.5170593,-0.03068229929,
437.0166321,0.5259757042,437.0166321,-0.03560841456,
436.5161133,0.5192071199,436.5161133,-0.04050719738,
436.0155945,0.523316741,436.0155945,-0.04081458226,
435.5150452,0.5202127099,435.5150452,-0.03523030132,
435.0143738,0.5207797289,435.0143738,-0.03837721795,
434.5137634,0.5212180018,434.5137634,-0.0342027694,
434.013092,0.5248075128,434.013092,-0.03561079875,
433.5123901,0.5243831277,433.5123901,-0.03908976167,
433.0115662,0.5285750031,433.0115662,-0.03869629651,
432.5107117,0.5296147466,432.5107117,-0.03828535974,
432.0098572,0.5371290445,432.0098572,-0.04317146167,
431.5089722,0.5264082551,431.5089722,-0.03747528791,
431.0079651,0.5296090841,431.0079651,-0.03333028406,
430.506958,0.5261173844,430.506958,-0.03157229349,
430.0058899,0.525934577,430.0058899,-0.04194827378,
429.5048523,0.5194585919,429.5048523,-0.0430762507,
429.0036926,0.5244656205,429.0036926,-0.04220982641,
428.5025635,0.5280611515,428.5025635,-0.0367311202,
428.0013123,0.5224272013,428.0013123,-0.03923939541,
427.5000305,0.5182641149,427.5000305,-0.0277030915,
426.9987183,0.521317184,426.9987183,-0.02978308126,
426.4973755,0.5185194612,426.4973755,-0.0401971899,
425.9960022,0.5159573555,425.9960022,-0.04038956016,
425.4945374,0.5189622641,425.4945374,-0.03382745385,
424.9930725,0.5298221111,424.9930725,-0.04264358431,
424.4915771,0.5317475796,424.4915771,-0.03751152381,
423.9899292,0.5279433727,423.9899292,-0.04088347778,
423.4883728,0.5300424099,423.4883728,-0.03491315991,
422.9866638,0.5356698632,422.9866638,-0.03779844567,
422.4849854,0.5318955183,422.4849854,-0.03961011022,
421.9832764,0.5313557386,421.9832764,-0.03851956502,
421.4814758,0.5181447268,421.4814758,-0.03759295866,
421.0182495,0.5166567564,421.0182495,-0.03424526006,
420.5163574,0.5327005386,420.5163574,-0.03920382261,
420.0144958,0.5432604551,420.0144958,-0.0367369689,
419.5125122,0.5366235971,419.5125122,-0.04217976332,
419.0105286,0.5370110273,419.0105286,-0.04279265553,
418.5085144,0.5369392037,418.5085144,-0.04427981004,
418.0064392,0.5439171195,418.0064392,-0.04007555172,
417.5042725,0.530878067,417.5042725,-0.03679466993,
417.0021057,0.5366135836,417.0021057,-0.03718981519,
416.4999084,0.5421867967,416.4999084,-0.0496676974,
415.9976807,0.5348010659,415.9976807,-0.04143862799,
415.4953613,0.5366886258,415.4953613,-0.03942202777,
414.9930725,0.5368986726,414.9930725,-0.03551825881,
414.4906921,0.5271440148,414.4906921,-0.05195679516,
413.9881897,0.533362031,413.9881897,-0.03898910806,
413.4857788,0.5315092802,413.4857788,-0.04705593362,
412.9832764,0.5352521539,412.9832764,-0.04574539512,
412.4807129,0.5351036191,412.4807129,-0.03447562456,
412.0167847,0.5339206457,412.0167847,-0.02884581126,
411.5141296,0.523676753,411.5141296,-0.03686344624,
411.0114746,0.5280202031,411.0114746,-0.04129332677,
410.5087891,0.5265674591,410.5087891,-0.04092880711,
410.0060425,0.52959162,410.0060425,-0.04275277629,
409.5031738,0.5340766311,409.5031738,-0.04174756259,
409.0003967,0.5366780162,409.0003967,-0.04034182057,
408.4974976,0.5382399559,408.4974976,-0.03405794874,
407.9945984,0.5391053557,407.9945984,-0.03218061849,
407.4916077,0.5300890207,407.4916077,-0.03590326756,
406.9886169,0.532563448,406.9886169,-0.04023706913,
406.4855957,0.5277451873,406.4855957,-0.04290518537,
405.9824524,0.5218348503,405.9824524,-0.04645387083,
405.5180664,0.5345279574,405.5180664,-0.03818428516,
405.0148621,0.5350546241,405.0148621,-0.03633312881,
404.5116577,0.5344293714,404.5116577,-0.03514847159,
404.0084229,0.5340839624,404.0084229,-0.04017878324,
403.505188,0.5409741998,403.505188,-0.04158684239,
403.0018311,0.5441502929,403.0018311,-0.04147834331,
402.4984436,0.5430553555,402.4984436,-0.04422730207,
401.9950562,0.5430917144,401.9950562,-0.03351800516,
401.4915771,0.5360790491,401.4915771,-0.03837627172,
400.9880981,0.534730792,400.9880981,-0.03415477276,
400.4845581,0.5310741067,400.4845581,-0.04243892059,
399.9809875,0.5305664539,399.9809875,-0.04188617691,
399.5160828,0.5307365656,399.5160828,-0.04130810872,
399.0124512,0.5301176906,399.0124512,-0.0454605557,
398.508728,0.5278193951,398.508728,-0.03778131306,
398.0050049,0.5317515731,398.0050049,-0.03838665038,
397.5012207,0.5386812091,397.5012207,-0.03850795701,
396.997406,0.5381806493,396.997406,-0.03741772473,
396.4935608,0.5336497426,396.4935608,-0.04139975458,
395.9896545,0.5362015963,395.9896545,-0.04664735124,
395.4857178,0.5295372009,395.4857178,-0.03651688993,
394.9817505,0.5232514739,394.9817505,-0.04334424809,
394.51651,0.5182940364,394.51651,-0.03696858883,
394.0124512,0.52565521,394.0124512,-0.0398119539,
393.5083618,0.5424402952,393.5083618,-0.03894059733,
393.0042114,0.5501340628,393.0042114,-0.04514715821,
392.500061,0.5396385789,392.500061,-0.03845981881,
391.9958191,0.5253565311,391.9958191,-0.03558256105,
391.4915771,0.5189490318,391.4915771,-0.03701056913,
390.9872742,0.5362358689,390.9872742,-0.0437474288,
390.4829407,0.5558153391,390.4829407,-0.04261185974,
390.0173645,0.5615777373,390.0173645,-0.04115358368,
389.5129395,0.5465983152,389.5129395,-0.04639906436,
389.0084839,0.5385474563,389.0084839,-0.03266585246,
388.5039978,0.5328561664,388.5039978,-0.03707626835,
387.9994507,0.5282876492,387.9994507,-0.03817646205,
387.4949036,0.5301426053,387.4949036,-0.04207174107,
386.9902649,0.5243500471,386.9902649,-0.03971718624,
386.4856262,0.537796855,386.4856262,-0.04205435514,
385.980957,0.5427806377,385.980957,-0.03391968459,
385.5150452,0.5445249677,385.5150452,-0.02920285054,
385.0102844,0.5374013186,385.0102844,-0.03155987337,
384.5054626,0.5404235721,384.5054626,-0.03279131278,
384.0006409,0.5334516168,384.0006409,-0.0340346843,
383.4957886,0.534553647,383.4957886,-0.03890505061,
382.9908142,0.5369035602,382.9908142,-0.03585669771,
382.4859009,0.5494326949,382.4859009,-0.04263842106,
381.980896,0.5517914891,381.980896,-0.03394247591,
381.514679,0.5420305729,381.514679,-0.03287997097,
381.009613,0.5350725055,381.009613,-0.03345406801,
380.5045166,0.5322753787,380.5045166,-0.03224782273,
379.9993286,0.5329096913,379.9993286,-0.03902393952,
379.4941711,0.5333442092,379.4941711,-0.04222814739,
378.9889526,0.5373452306,378.9889526,-0.03892483562,
378.4836426,0.5337991714,378.4836426,-0.03499207273,
378.0172424,0.5323602557,378.0172424,-0.03862420842,
377.5118713,0.5238485932,377.5118713,-0.03935403377,
377.0065002,0.526669383,377.0065002,-0.03617101163,
376.5010986,0.5526928902,376.5010986,-0.03920425102,
375.995636,0.5641934872,375.995636,-0.04091123119,
375.4901123,0.551533401,375.4901123,-0.04320455343,
374.9846191,0.5432778597,374.9846191,-0.03906056657,
374.5179138,0.5503003001,374.5179138,-0.04517114162,
374.0122986,0.5439235568,374.0122986,-0.03592900559,
373.5066833,0.5429797769,373.5066833,-0.03900250047,
373.000946,0.5458293557,373.000946,-0.03685731068,
372.4952393,0.5418463945,372.4952393,-0.04185881466,
371.989502,0.5400821567,371.989502,-0.03858546168,
371.4837036,0.5367516279,371.4837036,-0.03625984117,
371.0167847,0.535269618,371.0167847,-0.0356720835,
370.5109253,0.5460413694,370.5109253,-0.03861085325,
370.0050049,0.5453409553,370.0050049,-0.0378212221,
369.499054,0.5533671975,369.499054,-0.03654835001,
368.9930725,0.5469106436,368.9930725,-0.03359669447,
368.4870911,0.5424179435,368.4870911,-0.03980288282,
367.9809875,0.5414773226,367.9809875,-0.0387423709,
367.5138245,0.5441798568,367.5138245,-0.03923362494,
367.0076904,0.5384570956,367.0076904,-0.03555031493,
366.5015259,0.5422767401,366.5015259,-0.03522667289,
365.9953308,0.5492475629,365.9953308,-0.04082782567,
365.4890747,0.5521824956,365.4890747,-0.03859872743,
364.9828186,0.5518659353,364.9828186,-0.03577088565,
364.5154114,0.5461682677,364.5154114,-0.03153897822,
364.0090637,0.5448799133,364.0090637,-0.03800549731,
363.5026855,0.5455203652,363.5026855,-0.03222547099,
362.9963074,0.5434666872,362.9963074,-0.03189847618,
362.4897766,0.531121552,362.4897766,-0.03839508444,
361.9833069,0.5033023357,361.9833069,-0.03687500209,
361.5157166,0.5286595225,361.5157166,-0.03115051053,
361.0091858,0.554993093,361.0091858,-0.03078445978,
360.5025635,0.581189394,360.5025635,-0.04151697829,
359.9959106,0.5759113431,359.9959106,-0.03420621529,
359.4892273,0.5655714869,359.4892273,-0.03538957611,
358.9825134,0.5689532161,358.9825134,-0.03856731951,
358.51474,0.5610845685,358.51474,-0.03133002296,
358.0079651,0.5531605482,358.0079651,-0.02718825825,
357.5011292,0.5383034945,357.5011292,-0.02967401221,
356.9942627,0.548222065,356.9942627,-0.03043359704,
356.4873657,0.5852316022,356.4873657,-0.03657281399,
356.0194397,0.5813263655,356.0194397,-0.02155695111,
355.5124817,0.5575219393,355.5124817,-0.02896056324,
355.0054932,0.5568270087,355.0054932,-0.03230189532,
354.4984131,0.5677628517,354.4984131,-0.03640659526,
353.9913635,0.559281528,353.9913635,-0.02959335223,
353.4842529,0.5540245175,353.4842529,-0.02974373102,
353.0161133,0.5621697307,353.0161133,-0.03164320067,
352.5089111,0.5684608817,352.5089111,-0.02888616547,
352.001709,0.5677664876,352.001709,-0.03289417922,
351.4944458,0.5603735447,351.4944458,-0.03453683108,
350.9871521,0.5599669218,350.9871521,-0.0320911929,
350.5188599,0.5515642166,350.5188599,-0.03618163243,
350.0115356,0.5583808422,350.0115356,-0.02783926763,
349.5041504,0.5596140027,349.5041504,-0.02814575098,
348.9967041,0.5627247095,348.9967041,-0.02370254695,
348.4892273,0.5602516532,348.4892273,-0.02426250838,
347.9817505,0.5560316443,347.9817505,-0.02978448384,
347.5132446,0.5501115322,347.5132446,-0.02710290253,
347.0056763,0.5442814231,347.0056763,-0.02449279837,
346.4980774,0.5421378016,346.4980774,-0.02783140168,
345.9904175,0.548304975,345.9904175,-0.03456604481,
345.4827576,0.5562511086,345.4827576,-0.03650322929,
345.0140991,0.5610376,345.0140991,-0.02598089166,
344.5063782,0.5589693189,344.5063782,-0.02804728597,
343.9985962,0.5643546581,343.9985962,-0.0283465907,
343.4908142,0.5643908978,343.4908142,-0.02924602479,
342.9829407,0.5733134747,342.9829407,-0.03097323701,
342.5141296,0.5711052418,342.5141296,-0.0382183753,
342.0061951,0.5623420477,342.0061951,-0.03140761703,
341.4982605,0.558739841,341.4982605,-0.0269674696,
340.9902954,0.5614013076,340.9902954,-0.02777740173,
340.4822388,0.5656803846,340.4822388,-0.02711783536,
340.0133057,0.55847013,340.0133057,-0.0231503062,
339.5052185,0.5567261577,339.5052185,-0.0253251344,
338.9971008,0.5549830794,338.9971008,-0.02168802544,
338.4889526,0.5532386303,338.4889526,-0.0296902582,
337.9807739,0.5505869985,337.9807739,-0.02891900577,
337.5116272,0.5619876981,337.5116272,-0.02890525013,
337.0033569,0.5560373068,337.0033569,-0.02220671251,
336.4950562,0.5588951111,336.4950562,-0.02434954792,
335.9867554,0.561265111,335.9867554,-0.0216112379,
335.5174866,0.557900548,335.5174866,-0.02265593968,
335.0091248,0.5623196959,335.0091248,-0.02531927265,
334.5007019,0.5598945618,334.5007019,-0.02663614787,
333.9922485,0.5563184619,333.9922485,-0.03117855452,
333.4837341,0.5562464595,333.4837341,-0.02387458086,
333.0143433,0.5570226908,333.0143433,-0.02403434925,
332.5057678,0.5692403316,332.5057678,-0.0292067714,
331.9971924,0.5707429647,331.9971924,-0.02982189693,
331.4885559,0.5707617402,331.4885559,-0.02486379631,
331.019043,0.5654535294,331.019043,-0.02883336134,
330.5103455,0.5664382577,330.5103455,-0.02061403356,
330.0016174,0.5619833469,330.0016174,-0.02656782791,
329.4928589,0.560664773,329.4928589,-0.02612867579,
328.9840698,0.5605891943,328.9840698,-0.02955528907,
328.5144043,0.562869668,328.5144043,-0.0270815976,
328.0055542,0.5692749023,328.0055542,-0.02748834714,
327.4966431,0.5641072989,327.4966431,-0.02093034238,
326.9877014,0.557908237,326.9877014,-0.02323496714,
326.5179443,0.5527667403,326.5179443,-0.03074679151,
326.0089417,0.5524585843,326.0089417,-0.02208903059,
325.499939,0.5718380213,325.499939,-0.01833239757,
324.9908752,0.5775866508,324.9908752,-0.014629893,
324.481781,0.5504342318,324.481781,-0.01699469239,
324.0118408,0.5556492805,324.0118408,-0.0248465389,
323.5026855,0.5641716123,323.5026855,-0.02291080542,
322.9934998,0.5849922895,322.9934998,-0.02028568462,
322.4842834,0.5939521194,322.4842834,-0.01814792491,
322.0142212,0.5872907043,322.0142212,-0.02200114168,
321.5049438,0.5757821798,321.5049438,-0.0203228388,
320.9956665,0.5711975694,320.9956665,-0.01449171454,
320.4862671,0.572420001,320.4862671,-0.01771672256,
320.0160828,0.5633317828,320.0160828,-0.01168141328,
319.5066833,0.5527855158,319.5066833,-0.01506932173,
318.9972534,0.5612643957,318.9972534,-0.01552688796,
318.487793,0.5746721029,318.487793,-0.01338825934,
318.0174866,0.578301549,318.0174866,-0.01256580278,
317.5079651,0.5822292566,317.5079651,-0.002790325554,
316.9984131,0.5691276789,316.9984131,-0.003391144797,
316.4888,0.5685258508,316.4888,-0.003756945254,
316.0183716,0.5702616572,316.0183716,-0.006001625676,
315.508667,0.5557841659,315.508667,-0.003239373444,
314.9990234,0.5448738337,314.9990234,0.002380904974,
314.4892578,0.5573446155,314.4892578,0.01324656047,
314.0187378,0.5858318806,314.0187378,0.01445899159,
313.5089722,0.5929761529,313.5089722,0.01732094027,
312.999115,0.5758401752,312.999115,0.02919708192,
312.4892883,0.5681295395,312.4892883,0.03868256509,
312.0186157,0.5627607107,312.0186157,0.04461246729,
311.5086975,0.5624794364,311.5086975,0.05689673871,
310.9987793,0.5657783151,310.9987793,0.06894253194,
310.4888,0.5651057959,310.4888,0.0834197551,
310.0180359,0.5708742142,310.0180359,0.09760238975,
309.5079956,0.5769403577,309.5079956,0.1145573854,
308.9979248,0.5809049606,308.9979248,0.1337787658,
308.4878235,0.5722984672,308.4878235,0.1464493126,
308.0169373,0.5817580223,308.0169373,0.1622856706,
307.5067749,0.5899642706,307.5067749,0.1852750778,
306.996582,0.5879333019,306.996582,0.2044046968,
306.4863586,0.5830420852,306.4863586,0.2370391935,
306.0153809,0.5706472397,306.0153809,0.2571495473,
305.5050659,0.5806390643,305.5050659,0.2744175196,
304.9947815,0.5807129741,304.9947815,0.3098545372,
304.484436,0.5844447613,304.484436,0.3311145604,
304.0133057,0.5781514049,304.0133057,0.348343879,
303.5028992,0.5832247138,303.5028992,0.3682622612,
302.9924927,0.5859945416,302.9924927,0.3895953,
302.4819946,0.579105556,302.4819946,0.4097500145,
302.0108032,0.5692774653,302.0108032,0.4244972169,
301.5002747,0.5798692107,301.5002747,0.4535552263,
300.9897156,0.588563323,300.9897156,0.4668294489,
300.5184021,0.5991326571,300.5184021,0.4823513031,
300.007782,0.57856071,300.007782,0.4969379306,
299.4971619,0.5843217373,299.4971619,0.5175489783,
298.9864807,0.5841398239,298.9864807,0.5333150625,
298.5150757,0.5830424428,298.5150757,0.5540591478,
298.0043335,0.581253767,298.0043335,0.5696671009,
297.4935608,0.5815585256,297.4935608,0.5828821063,
296.9827576,0.5847895741,296.9827576,0.6078680158,
296.5112305,0.590220809,296.5112305,0.6247918606,
296.0003662,0.6146020889,296.0003662,0.6439343691,
295.489502,0.6125566959,295.489502,0.659683466,
295.0178833,0.6063019037,295.0178833,0.6782813072,
294.506958,0.5951176882,294.506958,0.7009671926,
293.9959717,0.6005666256,293.9959717,0.7118512988,
293.4849854,0.6153668761,293.4849854,0.7292302847,
293.0132446,0.6217269897,293.0132446,0.7440096736,
292.5021973,0.6185566187,292.5021973,0.7621225119,
291.9911194,0.5975235105,291.9911194,0.7813692689,
291.5193176,0.5944058895,291.5193176,0.7852708697,
291.0081787,0.5916877985,291.0081787,0.7989037633,
290.4970093,0.5920664072,290.4970093,0.8150749207,
289.9857788,0.6049395204,289.9857788,0.8280006647,
289.5138855,0.6298497319,289.5138855,0.8316830397,
289.0026245,0.6158112288,289.0026245,0.8416717649,
288.491333,0.6045207381,288.491333,0.8598264456,
288.0193481,0.6060838699,288.0193481,0.8629710078,
287.5079956,0.6053017974,287.5079956,0.8774319887,
286.9966431,0.6008984447,286.9966431,0.88595438,
286.485199,0.5936352611,286.485199,0.8945857882,
286.0131226,0.612837851,286.0131226,0.8993518353,
285.5016479,0.6216086149,285.5016479,0.9080848098,
284.9901428,0.6259967089,284.9901428,0.9175382257,
284.5180054,0.621576786,284.5180054,0.9144617319,
284.0064392,0.6235769987,284.0064392,0.9221714735,
283.4949036,0.6355922222,283.4949036,0.926394403,
282.9832764,0.6226863861,282.9832764,0.927508235,
282.5109863,0.6127857566,282.5109863,0.9235715866,
281.9993286,0.6073437333,281.9993286,0.9258220792,
281.4876404,0.6302351952,281.4876404,0.9248711467,
281.0153198,0.6430728436,281.0153198,0.9249699712,
280.5035706,0.6389961243,280.5035706,0.9178962111,
279.9917908,0.637955606,279.9917908,0.9209137559,
279.5193481,0.6406193376,279.5193481,0.9118349552,
279.0075073,0.6396600008,279.0075073,0.9034299254,
278.4956665,0.6396579146,278.4956665,0.8950032592,
277.9837952,0.6354857683,277.9837952,0.8920971155,
277.511261,0.6294664145,277.511261,0.8913843632,
276.9993286,0.6323295832,276.9993286,0.8909192085,
276.4873352,0.6404924393,276.4873352,0.8816998005,
276.01474,0.6486450434,276.01474,0.8708078265,
275.5027161,0.6539037824,275.5027161,0.8661162853,
274.9906616,0.6629841328,274.9906616,0.8568632007,
274.5179749,0.6652085185,274.5179749,0.8446487784,
274.0058899,0.6452240348,274.0058899,0.8205315471,
273.4937744,0.6352433562,273.4937744,0.8170827031,
272.9815674,0.6435893774,272.9815674,0.8069415092,
272.5087891,0.6541110277,272.5087891,0.8105758429,
271.9965515,0.6522141099,271.9965515,0.7735052705,
271.4843445,0.6444224715,271.4843445,0.7773954868,
271.0115051,0.6556409001,271.0115051,0.7651846409,
270.4992065,0.7090306878,270.4992065,0.7486029863,
269.9868774,0.7137932777,269.9868774,0.7206867337,
269.513916,0.6848777533,269.513916,0.7155261636,
269.0015564,0.6775039434,269.0015564,0.703578651,
268.4891663,0.6841251254,268.4891663,0.6937609315,
268.0161438,0.6848201752,268.0161438,0.6703115106,
267.5037231,0.6921849847,267.5037231,0.6622568965,
266.9912109,0.6967810392,266.9912109,0.6479728818,
266.518158,0.6916723251,266.518158,0.6392447948,
266.0055847,0.7111030817,266.0055847,0.6117405891,
265.493042,0.734865725,265.493042,0.6017460823,
264.9804688,0.721051693,264.9804688,0.5846689939,
264.5072632,0.7147473097,264.5072632,0.5704760551,
263.9946289,0.7076241374,263.9946289,0.5464176536,
263.4819641,0.7140835524,263.4819641,0.5331681967,
263.0086975,0.7158218622,263.0086975,0.52365309,
262.4959717,0.7258356214,262.4959717,0.5003769398,
261.9832458,0.7342438102,261.9832458,0.489248991,
261.5099182,0.7291309834,261.5099182,0.4811892807,
260.9971313,0.7215370536,260.9971313,0.4543986619,
260.484314,0.7116601467,260.484314,0.4410566092,
260.0108948,0.7312456965,260.0108948,0.4271203578,
259.4980164,0.7726482749,259.4980164,0.413882345,
258.9851379,0.8114304543,258.9851379,0.3979901373,
258.5116577,0.8145903945,258.5116577,0.3878231645,
257.9987183,0.8105792999,257.9987183,0.3705034852,
257.4857483,0.7986463904,257.4857483,0.36361745,
257.012207,0.7995039821,257.012207,0.3516104221,
256.499176,0.8193568587,256.499176,0.3304325044,
255.9861145,0.8239026666,255.9861145,0.3200366795,
255.5124969,0.8168662786,255.5124969,0.3121993244,
254.9994049,0.8233057261,254.9994049,0.3000569344,
254.4862671,0.8250985146,254.4862671,0.2771126032,
254.0125885,0.8250675797,254.0125885,0.27003932,
253.4994049,0.8284253478,253.4994049,0.2578037083,
252.9862061,0.8233755231,252.9862061,0.2471501976,
252.5124664,0.8258410096,252.5124664,0.2397687584,
251.9992218,0.8484937549,251.9992218,0.2301365733,
251.4859161,0.8839313388,251.4859161,0.2191098928,
251.0121155,0.907776475,251.0121155,0.2118843943,
250.4987488,0.9034660459,250.4987488,0.1995129436,
249.9853973,0.8993424177,249.9853973,0.1932838857,
249.5115204,0.8944663405,249.5115204,0.1870025247,
248.9981232,0.8967562914,248.9981232,0.1836534142,
248.4846954,0.9125043154,248.4846954,0.1686633974,
248.0107269,0.9119467139,248.0107269,0.1569829285,
247.4972534,0.926618278,247.4972534,0.1517148167,
246.9837341,0.9457299709,246.9837341,0.1434584409,
246.5097351,0.9871047139,246.5097351,0.1451269835,
245.99617,1.04068625,245.99617,0.1312911659,
245.4825897,1.057379603,245.4825897,0.1269577295,
245.0084686,1.046623349,245.0084686,0.1209874451,
244.4948578,1.039547801,244.4948578,0.1097509861,
243.9812164,1.036189675,243.9812164,0.1057542488,
243.5070648,1.041956544,243.5070648,0.1084607542,
242.9933777,1.051471829,242.9933777,0.09908484668,
242.519165,1.071056724,242.519165,0.09298593551,
242.0054169,1.113687396,242.0054169,0.09222835302,
241.4916534,1.152432799,241.4916534,0.07977372408,
241.017395,1.178896189,241.017395,0.07762733847,
240.5035706,1.1915344,240.5035706,0.07527026534,
239.9897156,1.200500011,239.9897156,0.07218043506,
239.5153809,1.215210319,239.5153809,0.0655381456,
239.0014648,1.224686384,239.0014648,0.06137133017,
238.4875641,1.239763618,238.4875641,0.05756269023,
238.0131683,1.250572562,238.0131683,0.05990167335,
237.4992065,1.278367281,237.4992065,0.05671815574,
236.9852295,1.297128797,236.9852295,0.05909102038,
236.5107422,1.302607536,236.5107422,0.05551662296,
235.9967194,1.336514354,235.9967194,0.05674157664,
235.482666,1.367418528,235.482666,0.05660304427,
235.0081482,1.391427755,235.0081482,0.05052775517,
234.4940186,1.403397083,234.4940186,0.05319493264,
234.0194702,1.424525142,234.0194702,0.05814220011,
233.5052948,1.463716388,233.5052948,0.05544267967,
232.9911346,1.490914583,232.9911346,0.06014081836,
232.5164795,1.505305052,232.5164795,0.07325345278,
232.0022888,1.50744319,232.0022888,0.08051516861,
231.4880524,1.518285513,231.4880524,0.09052336961,
231.0133362,1.560899138,231.0133362,0.0984172374,
230.499054,1.599049211,230.499054,0.1145764962,
229.9847412,1.611482859,229.9847412,0.1449806094,
229.5099792,1.628712535,229.5099792,0.1689333022,
228.995636,1.669272304,228.995636,0.1972568631,
228.4812469,1.740156174,228.4812469,0.2253152877,
228.006424,1.781319976,228.006424,0.2492993027,
227.4919739,1.810876966,227.4919739,0.2894362211,
227.0171356,1.800073147,227.0171356,0.3361058831,
226.502655,1.803267002,226.502655,0.3695095479,
225.9881744,1.837217331,225.9881744,0.4035390019,
225.5132294,1.869817138,225.5132294,0.4175706506,
224.9986877,1.899974465,224.9986877,0.4245457947,
224.4841461,1.915385365,224.4841461,0.4315119684,
224.0091553,1.930123091,224.0091553,0.4354629219,
223.4945526,1.963574529,223.4945526,0.4318657219,
223.0195007,1.984123707,223.0195007,0.4355980754,
222.5048523,1.996099353,222.5048523,0.4389851391,
221.9901886,2.019233942,221.9901886,0.4501281679,
221.5151062,2.045409441,221.5151062,0.4601677358,
221.0003662,2.079571486,221.0003662,0.4716616273,
220.4856567,2.107085466,220.4856567,0.4896054864,
220.010498,2.121525049,220.010498,0.4898469448,
219.4957123,2.14448452,219.4957123,0.5025448799,
218.980896,2.169461727,218.980896,0.4949685931,
218.5056915,2.196069717,218.5056915,0.4892864525,
217.99086,2.209062338,217.99086,0.4822428524,
217.5156097,2.231962204,217.5156097,0.4762697518,
217.0007019,2.249329567,217.0007019,0.4630774856,
216.4857941,2.271159649,216.4857941,0.4556073248,
216.0104828,2.288198233,216.0104828,0.4392465949,
215.4955292,2.326874971,215.4955292,0.4271226823,
214.980545,2.342008114,214.980545,0.4143531919,
214.5052032,2.36712122,214.5052032,0.4247798622,
213.9901733,2.383826971,213.9901733,0.3975279033,
213.51474,2.418190241,213.51474,0.4019723833,
212.9997101,2.45459199,212.9997101,0.3960676491,
212.4846191,2.492096901,212.4846191,0.3807561696,
212.0091553,2.533528805,212.0091553,0.3898714483,
211.4940186,2.586090088,211.4940186,0.370007962,
211.0185394,2.669873238,211.0185394,0.3817599416,
210.5033569,2.79086256,210.5033569,0.3761425018,
209.9881897,2.88984704,209.9881897,0.3604502976,
209.512619,3.081649542,209.512619,0.3052334785,
208.9973907,3.334141254,208.9973907,0.2534311116,
208.482132,3.531211853,208.482132,0.1894830167,
208.0065002,3.745899916,208.0065002,0.5062000155,
207.4912415,3.814791918,207.4912415,0.1899397224,
207.015564,3.852322817,207.015564,0.08472146094,
206.5002289,4.035937786,206.5002289,0.07040312141,
205.9849091,3.887744665,205.9849091,0.001327543869,
205.5091858,3.920040846,205.5091858,-0.02979589254,
204.9937897,3.976664066,204.9937897,0.02931257524,
204.5180206,3.918833256,204.5180206,-0.0566187799,
204.0025787,3.925942659,204.0025787,-0.01885684021,
203.4871521,3.96310997,203.4871521,-0.06146913394,
203.0113373,3.951749325,203.0113373,0.03485403955,
202.4958344,3.986245394,202.4958344,0.1455797702,
201.9803314,3.927166939,201.9803314,0.1475439221,
201.5044556,3.82727623,201.5044556,0.02361491323,
200.9889221,3.729882479,200.9889221,0.1166560873,
200.5130005,3.826084137,200.5130005,-0.01235435903,
199.9974213,3.740065813,199.9974213,0.09782052785,

Baseline 100%T,
Baseline 100%T
Collection Time: 01-Nov-24 16:46:17
Operator Name  :
Scan Version 5.1.3.1042
Parameter List :
Instrument  Cary 60
Instrument Version  2.00
Start (nm)  800.0
Stop (nm)  200.0
X Mode  Nanometers
Y Mode  Abs
UV-Vis Scan Rate (nm/min)  300.000
UV-Vis Data Interval (nm)  0.50
UV-Vis Ave. Time (sec)  0.1000
Beam Mode  Dual Beam
Baseline Correction  On
Baseline Type  Baseline correction
Baseline File Name
Baseline Std Ref File Name
Cycle Mode  Off
Method Log     :
Method Name    :
Date/Time stamp: 01-Nov-24 11:22:43
Method Modifications:
UVVIS SAT Changed: 01-Nov-24 16:46:01, Old:0.0125, New:0.1000
Common SAT Changed: 01-Nov-24 16:46:01, Old:0.0125, New:0.1000
Y Min Abs Changed: 01-Nov-24 16:46:10, Old:    -0.05, New:    -0.30
Y Max Abs Changed: 01-Nov-24 16:46:10, Old:     1.00, New:     4.00
Common Interval nm Changed: 01-Nov-24 16:46:10, Old:     5.00, New:     0.50
Baseline Correction Changed: 01-Nov-24 16:46:10, Old:0, New:1
End Method Modifications
<Current Wavelength> , 200.0

UV_THF_Cinnamaldhyde,
UV_THF_Cinnamaldhyde
Collection Time: 01-Nov-24 15:29:19
Operator Name  :
Scan Version 5.1.3.1042
Parameter List :
Instrument  Cary 60
Instrument Version  2.00
Start (nm)  800.0
Stop (nm)  200.0
X Mode  Nanometers
Y Mode  Abs
UV-Vis Scan Rate (nm/min)  300.000
UV-Vis Data Interval (nm)  0.50
UV-Vis Ave. Time (sec)  0.1000
Beam Mode  Dual Beam
Baseline Correction  On
Baseline Type  Baseline correction
Baseline File Name
Baseline Std Ref File Name
Cycle Mode  Off
Method Log     :
Method Name    :
Date/Time stamp: 01-Nov-24 11:22:43
Method Modifications:
UVVIS SAT Changed: 01-Nov-24 15:20:58, Old:0.0125, New:0.1000
Common SAT Changed: 01-Nov-24 15:20:58, Old:0.0125, New:0.1000
Y Min Abs Changed: 01-Nov-24 15:21:08, Old:    -0.05, New:    -0.30
Y Max Abs Changed: 01-Nov-24 15:21:08, Old:     1.00, New:     4.00
Common Interval nm Changed: 01-Nov-24 15:21:08, Old:     5.00, New:     0.50
Baseline Correction Changed: 01-Nov-24 15:21:08, Old:0, New:1
End Method Modifications
<Current Wavelength> , 200.0

